Time,Inertial_X_Position,Inertial_Y_Position,Inertial_Z_Position,Body_U_Vel,Body_V_Vel,Body_W_Vel,Body_P_Vel,Body_Q_Vel,Body_R_Vel,Roll_Angle,Pitch_Angle,Yaw_Angle,Phase,Inertial_Vx,Inertial_Vy,Inertial_Vz,Eul_Phi_Dot,Eul_Theta_Dot,Eul_Psi_Dot,delta_R,delta_L,delta_s,delta_a,GAMMA_deg,Wind_X,Wind_Y,Wind_Z
0,0,0,-1000,6,0,3,0,0,0,0,0,0,1,6,0,3,0,0,0,0,0,0,0,7,0,0,0
0.05,0.304578737003027,0,-999.868130561602,6.19508678108689,0,2.21885966723874,0,-0.557406013793567,0,0,-0.842682809365209,0,1,6.16178385288059,0,2.30973119615171,0,-0.557406013793567,0,0,0,0,0,7,0,0,0
0.1,0.614492385365254,0,-999.765695705722,6.31005871532646,0,1.48722160529128,0,-0.941202309341716,0,0,-3.02717343599834,0,1,6.2227141395321,0,1.81837780226767,0,-0.941202309341716,0,0,0,0,0,7,0,0,0
0.15,0.925899124656237,0,-999.683415980891,6.35082588911332,0,0.829387938804363,0,-1.17744331772703,0,0,-6.09388656917062,0,1,6.22689298551408,0,1.49889211547116,0,-1.17744331772703,0,0,0,0,0,7,0,0,0
0.2,1.23665262408629,0,-999.613400848789,6.33365110781645,0,0.264585629852327,0,-1.29088878324334,0,0,-9.65576530894123,0,1,6.19954538936846,0,1.32317001032717,0,-1.29088878324334,0,0,0,0,0,7,0,0,0
0.25,1.54555838690537,0,-999.549155284576,6.27988115798456,0,-0.196560254257648,0,-1.30547869540983,0,0,-13.3955175106999,0,1,6.15456821550383,0,1.26365872476444,0,-1.30547869540983,0,0,0,0,0,7,0,0,0
0.3,1.85194459489339,0,-999.485530565289,6.21091540195104,0,-0.552565295563215,0,-1.24396931005726,0,0,-17.0628823075197,0,1,6.0996657128855,0,1.29417028520306,0,-1.24396931005726,0,0,0,0,0,7,0,0,0
0.35,2.15544146407916,0,-999.418638725847,6.14456266405976,0,-0.809428112791554,0,-1.12723930304278,0,0,-20.4702719170748,0,1,6.03963097589117,0,1.39056890422242,0,-1.12723930304278,0,0,0,0,0,7,0,0,0
0.4,2.45588738287105,0,-999.345733990984,6.0932452725036,0,-0.977986039319046,0,-0.973662579955937,0,0,-23.4864467152203,0,1,5.97820540211593,0,1.53138983087338,0,-0.973662579955937,0,0,0,0,0,7,0,0,0
0.45,2.75330074527073,0,-999.26506782674,6.06381377156571,0,-1.07134736287085,0,-0.798765008765695,0,0,-26.0287708073489,0,1,5.91891546442653,0,1.69825273535264,0,-0.798765008765695,0,0,0,0,0,7,0,0,0
0.5,3.04787588216855,0,-999.175730587147,6.05838096912526,0,-1.1029935270128,0,-0.615200294060898,0,0,-28.054949269911,0,1,5.86526053718238,0,1.87597801657224,0,-0.615200294060898,0,0,0,0,0,7,0,0,0
0.55,3.33997875670937,0,-999.077494482648,6.07558210908244,0,-1.08567734102415,0,-0.432961180399529,0,0,-29.5550600992408,0,1,5.82056094110483,0,2.05242870373144,0,-0.432961180399529,0,0,0,0,0,7,0,0,0
0.6,3.63013126634694,0,-998.970669264549,6.11185000538804,0,-1.03095773035353,0,-0.259704059452844,0,0,-30.5443817400857,0,1,5.78768230612358,0,2.21817894984186,0,-0.259704059452844,0,0,0,0,0,7,0,0,0
0.65,3.91898148240766,0,-998.855976345468,6.16249580955817,0,-0.949118454025458,0,-0.1010851039963,0,0,-31.0571865914301,0,1,5.76876329736352,0,2.36612562252836,0,-0.1010851039963,0,0,0,0,0,7,0,0,0
0.7,4.20726178864174,0,-998.734441834644,6.22252821267459,0,-0.849246990023697,0,0.0389499681967316,0,0,-31.1414396650184,0,1,5.76501024223971,0,2.49113121181257,0,0.0389499681967316,0,0,0,0,0,7,0,0,0
0.75,4.49573905498784,0,-998.60730563006,6.28721808921214,0,-0.739326858766091,0,0.157937983485857,0,0,-30.8542386242491,0,1,5.77658627281962,0,2.58974256212488,0,0.157937983485857,0,0,0,0,0,7,0,0,0
0.8,4.78516186419599,0,-998.47594251446,6.35244424493277,0,-0.626275558340938,0,0.254718965666411,0,0,-30.257832051325,0,1,5.80260465898211,0,2.6599902502667,0,0.254718965666411,0,0,0,0,0,7,0,0,0
0.85,5.07621000793992,0,-998.341791696262,6.41486304572401,0,-0.515920177735227,0,0.32927923322394,0,0,-29.4161128402799,0,1,5.84122501447293,0,2.70124635223922,0,0.32927923322394,0,0,0,0,0,7,0,0,0
0.9,5.36945114116595,0,-998.206292723299,6.47194492461211,0,-0.412938146173758,0,0.382591211647193,0,0,-28.3915605338347,0,1,5.88984033786265,0,2.71410571169657,0,0.382591211647193,0,0,0,0,0,7,0,0,0
0.95,5.66530859196803,0,-998.070827479355,6.52191940447364,0,-0.320803465163353,0,0.416433205218533,0,0,-27.2426687381385,0,1,5.94533124358015,0,2.70025628150743,0,0.416433205218533,0,0,0,0,0,7,0,0,0
1,5.96404288059314,0,-997.936669467947,6.56366735683059,0,-0.241774636612431,0,0.433184953389947,0,0,-26.0219240433077,0,1,6.00435388054681,0,2.6623145237171,0,0.433184953389947,0,0,0,0,0,7,0,0,0
1.05,6.26574768524851,0,-997.804942403943,6.59659350680122,0,-0.176946296837417,0,0.435606612105107,0,0,-24.7743973147112,0,1,6.06362354813871,0,2.60361774314014,0,0.435606612105107,0,0,0,0,0,7,0,0,0
1.1,6.57035913554721,0,-997.676590125385,6.6205035579159,0,-0.126369163754464,0,0.4266167862581,0,0,-23.5369737593643,0,1,6.1201590046788,0,2.52798146420699,0,0.4266167862581,0,0,0,0,0,7,0,0,0
1.15,6.8776757865577,0,-997.552359106496,6.63550018258921,0,-0.0892277148934788,0,0.409088057568058,0,0,-22.3381981260267,0,1,6.17146229823614,0,2.43944201810506,0,0.409088057568058,0,0,0,0,0,7,0,0,0
1.2,7.18738570270144,0,-997.432793682777,6.64190270683033,0,-0.0640551490137606,0,0.385676438824309,0,0,-21.1986604420525,0,1,6.21562265183575,0,2.34200975213633,0,0.385676438824309,0,0,0,0,0,7,0,0,0
1.25,7.49909685742225,0,-997.318242845835,6.64018845972217,0,-0.0489614253962351,0,0.358695844062727,0,0,-20.1318077061799,0,1,6.25134661471971,0,2.23945651988083,0,0.358695844062727,0,0,0,0,0,7,0,0,0
1.3,7.81236744463965,0,-997.208876439191,6.63095024001253,0,-0.0418516022139699,0,0.330041937480668,0,0,-19.1450447157285,0,1,6.27792713696063,0,2.1351542110919,0,0.330041937480668,0,0,0,0,0,7,0,0,0
1.35,8.12673349265094,0,-997.104707975264,6.61486382556997,0,-0.0406165586047312,0,0.301163346510536,0,0,-18.2409840871929,0,1,6.29516985485873,0,2.03197185860067,0,0.301163346510536,0,0,0,0,0,7,0,0,0
1.4,8.44173212627346,0,-997.00562114461,6.592660856457,0,-0.0432846390614783,0,0.273073347607881,0,0,-17.4187187231734,0,1,6.30329580460963,0,1.93222998833721,0,0.273073347607881,0,0,0,0,0,7,0,0,0
1.45,8.75691973177259,0,-996.911397334554,6.5651045443594,0,-0.0481292958195166,0,0.246392244586063,0,0,-16.6750143406261,0,1,6.30283726208019,0,1.83770415334409,0,0.246392244586063,0,0,0,0,0,7,0,0,0
1.5,9.0718850098368,0,-996.821741985824,6.53296755541266,0,-0.0537334105671163,0,0.22140970626832,0,0,-16.0053494803865,0,1,6.29453907509769,0,1.74966573709208,0,0.22140970626832,0,0,0,0,0,7,0,0,0
1.55,9.38625740166883,0,-996.736308250091,6.49701258703683,0,-0.0590151150818206,0,0.198156925912316,0,0,-15.404760620424,0,1,6.27927315262044,0,1.66894697779865,0,0.198156925912316,0,0,0,0,0,7,0,0,0
1.6,9.69971164983531,0,-996.654717047241,6.45797653882781,0,-0.0632224539548791,0,0.176480085220407,0,0,-14.8684769161991,0,1,6.2579696610122,0,1.59601810033138,0,0.176480085220407,0,0,0,0,0,7,0,0,0
1.65,10.0119693514313,0,-996.57657317572,6.41655895946096,0,-0.0659052714585288,0,0.156108734697646,0,0,-14.392350508654,0,1,6.23156540146675,0,1.53106663221669,0,0.156108734697646,0,0,0,0,0,7,0,0,0
1.7,10.3227983311092,0,-996.501477558603,6.37341493223108,0,-0.0668725567239924,0,0.136714916447387,0,0,-13.9731034505562,0,1,6.20096786783794,0,1.47407168729011,0,0.136714916447387,0,0,0,0,0,7,0,0,0
1.75,10.632010557238,0,-996.429036001025,6.3291520087266,0,-0.0661425152383425,0,0.117960859433703,0,0,-13.6084213152343,0,1,6.16703244988926,0,1.42486867601996,0,0.117960859433703,0,0,0,0,0,7,0,0,0
1.8,10.9394591868627,0,-996.358865002015,6.28433038673201,0,-0.0638912123428542,0,0.0995347020652882,0,0,-13.2969273406528,0,1,6.13054990574137,0,1.38320220858424,0,0.0995347020652882,0,0,0,0,0,7,0,0,0
1.85,11.245035182599,0,-996.290595228611,6.2394653245673,0,-0.060404060355914,0,0.081174880159886,0,0,-13.0380707236508,0,1,6.09224133369347,0,1.34876674003402,0,0.081174880159886,0,0,0,0,0,7,0,0,0
1.9,11.5486638142811,0,-996.223873249575,6.19503077957942,0,-0.0560329172132937,0,0.0626845740634935,0,0,-12.8319596734588,0,1,6.05275822759127,0,1.32123574205138,0,0.0626845740634935,0,0,0,0,0,7,0,0,0
1.95,11.8503012486432,0,-996.158362066408,6.15146339874838,0,-0.0511602683488664,0,0.0439379976807033,0,0,-12.6791652058023,0,1,6.01268565826982,0,1.30028092888995,0,0.0439379976807033,0,0,0,0,0,7,0,0,0
2,12.1499313442843,0,-996.093740892882,6.109166206944,0,-0.0461709395117998,0,0.0248804164236753,0,0,-12.580516344813,0,1,5.97254709423973,0,1.28558341106697,0,0.0248804164236753,0,0,0,0,0,7,0,0,0
2.05,12.4475627058155,0,-996.029704538283,6.06851157420666,0,-0.0414310471429565,0,0.00552368536382573,0,0,-12.5369020929863,0,1,5.93280980488381,0,1.27683870438757,0,0.00552368536382573,0,0,0,0,0,7,0,0,0
2.1,12.7432260076398,0,-995.965962656064,6.02984325659808,0,-0.0372734112420632,0,-0.0140611207940904,0,0,-12.5490906906575,0,1,5.8938901532734,0,1.27375738171515,0,-0.0140611207940904,0,0,0,0,0,7,0,0,0
2.15,13.0369715707115,0,-995.902239036231,5.99347747407281,0,-0.033988391677759,0,-0.0337526962086391,0,0,-12.6175725789521,0,1,5.85615837493838,0,1.27606290229991,0,-0.0337526962086391,0,0,0,0,0,7,0,0,0
2.2,13.3288671611389,0,-995.83827105048,5.95970310745993,0,-0.0318190147024195,0,-0.0533891193979213,0,0,-12.7424302127833,0,1,5.81994265557133,0,1.28348785137434,0,-0.0533891193979213,0,0,0,0,0,7,0,0,0
2.25,13.6189959741861,0,-995.773809305182,5.92878116916046,0,-0.0309592854305095,0,-0.0727773875260521,0,0,-12.9232354419474,0,1,5.78553247252247,0,1.29576951597653,0,-0.0727773875260521,0,0,0,0,0,7,0,0,0
2.3,13.9074547681168,0,-995.70861751824,5.90094373769283,0,-0.0315546931056466,0,-0.0917024104841255,0,0,-13.1589735159126,0,1,5.75318126263066,0,1.3126454408517,0,-0.0917024104841255,0,0,0,0,0,7,0,0,0
2.35,14.1943521169763,0,-995.642472609811,5.87639255503934,0,-0.0337040752539371,0,-0.109935211290528,0,0,-13.4479917582291,0,1,5.72310853383661,0,1.3338493676338,0,-0.109935211290528,0,0,0,0,0,7,0,0,0
2.4,14.4798067579682,0,-995.575164981766,5.85529747697876,0,-0.0374621879388762,0,-0.127240238291902,0,0,-13.7879704689989,0,1,5.69550156107735,0,1.35910776879706,0,-0.127240238291902,0,0,0,0,0,7,0,0,0
2.45,14.7639460162032,0,-995.506498953907,5.83779494717758,0,-0.0428425128190429,0,-0.143381808672715,0,0,-14.1759135166269,0,1,5.67051680782208,0,1.38813704597352,0,-0.143381808672715,0,0,0,0,0,7,0,0,0
2.5,15.0469042963762,0,-995.436293324076,5.82398664042626,0,-0.0498200039250799,0,-0.158129776227114,0,0,-14.6081562501651,0,1,5.64828120119537,0,1.42064136673464,0,-0.158129776227114,0,0,0,0,0,7,0,0,0
2.55,15.3288216368083,0,-995.364382022087,5.81393839187402,0,-0.0583336290351801,0,-0.171264554953292,0,0,-15.0803886927145,0,1,5.62889336695468,0,1.45631105888705,0,-0.171264554953292,0,0,0,0,0,7,0,0,0
2.6,15.6098423259676,0,-995.290614832141,5.807679499049,0,-0.0682886867790214,0,-0.182581640028371,0,0,-15.5876923736434,0,1,5.6124249048342,0,1.49482145957733,0,-0.182581640028371,0,0,0,0,0,7,0,0,0
2.65,15.8901135849364,0,-995.214858163523,5.8052024528807,0,-0.0795589782266263,0,-0.191895755271852,0,0,-16.1245895497265,0,1,5.59892175756955,0,1.53583212056623,0,-0.191895755271852,0,0,0,0,0,7,0,0,0
2.7,16.1697843212697,0,-995.13699585377,5.80646312381838,0,-0.0919889796012066,0,-0.199044727110793,0,0,-16.6851038968287,0,1,5.58840569974817,0,1.57898629368747,0,-0.199044727110793,0,0,0,0,0,7,0,0,0
2.75,16.4490039603393,0,-995.056929991526,5.81138140064339,0,-0.1053962010528,0,-0.203893144667728,0,0,-17.2628319845179,0,1,5.58087594623872,0,1.62391065506522,0,-0.203893144667728,0,0,0,0,0,7,0,0,0
2.8,16.7279213596078,0,-994.97458174731,5.81984225423217,0,-0.119573926295226,0,-0.206335818818651,0,0,-17.8510249507743,0,1,5.57631085481227,0,1.67021526711339,0,-0.206335818818651,0,0,0,0,0,7,0,0,0
2.85,17.0066838094168,0,-994.889892199505,5.83169717812744,0,-0.13429451139105,0,-0.206301004472475,0,0,-18.4426797610868,0,1,5.57466967425127,0,1.7174938183739,0,-0.206301004472475,0,0,0,0,0,7,0,0,0
2.9,17.2854361209088,0,-994.802823139851,5.846765944134,0,-0.149313381039391,0,-0.203753304179785,0,0,-19.0306392666629,0,1,5.57589426869325,0,1.76532421826596,0,-0.203753304179785,0,0,0,0,0,7,0,0,0
2.95,17.5643197978142,0,-994.713357838186,5.86483860577088,0,-0.164373801352203,0,-0.198696131499913,0,0,-19.6076999830544,0,1,5.5799107326284,0,1.81326965292255,0,-0.198696131499913,0,0,0,0,0,7,0,0,0
3,17.8434722842676,0,-994.621501740278,5.88567768608645,0,-0.179212434322652,0,-0.191173583035122,0,0,-20.1667261171324,0,1,5.58663080078946,0,1.86088022633974,0,-0.191173583035122,0,0,0,0,0,7,0,0,0
3.05,18.1230262759478,0,-994.527283066286,5.90902049884931,0,-0.193565597034761,0,-0.181271551908364,0,0,-20.7007679108804,0,1,5.59595295534925,0,1.90769531573958,0,-0.181271551908364,0,0,0,0,0,7,0,0,0
3.1,18.4031090771236,0,-994.430753271072,5.93458157199533,0,-0.207176065010961,0,-0.169117915253866,0,0,-21.2031818871089,0,1,5.60776314151501,0,1.95324675994757,0,-0.169117915253866,0,0,0,0,0,7,0,0,0
3.15,18.6838419822116,0,-994.331987322247,5.96205516671699,0,-0.219800181310767,0,-0.15488164557202,0,0,-21.6677501230515,0,1,5.62193502339408,0,1.99706297432405,0,-0.15488164557202,0,0,0,0,0,7,0,0,0
3.2,18.9653396578277,0,-994.231083748087,5.99111791097683,0,-0.231214968448557,0,-0.138770730874864,0,0,-22.0887952937496,0,1,5.63832974548212,0,2.03867404605875,0,-0.138770730874864,0,0,0,0,0,7,0,0,0
3.25,19.2477095006714,0,-994.128164406018,6.02143158820442,0,-0.241224895659218,0,-0.121028840216686,0,0,-22.461287967811,0,1,5.65679521038175,0,2.07761781122368,0,-0.121028840216686,0,0,0,0,0,7,0,0,0
3.3,19.5310509484372,0,-994.023373923836,6.05264613627965,0,-0.24966793502031,0,-0.101930736632596,0,0,-22.7809425473913,0,1,5.67716493767466,0,2.1134468527114,0,-0.101930736632596,0,0,0,0,0,7,0,0,0
3.35,19.8154547256563,0,-993.916878770554,6.08440291521928,0,-0.256420550069087,0,-0.081776514255631,0,0,-23.0442983555382,0,1,5.6992566276454,0,2.14573628982374,0,-0.081776514255631,0,0,0,0,0,7,0,0,0
3.4,20.1010020140068,0,-993.808865921987,6.11633829236281,0,-0.261401301055758,0,-0.0608848146261847,0,0,-23.2487827059832,0,1,5.72287061055663,0,2.17409216033829,0,-0.0608848146261847,0,0,0,0,0,7,0,0,0
3.45,20.3877635469114,0,-993.699541097829,6.14808757134757,0,-0.264572820323191,0,-0.039585252167905,0,0,-23.3927533435322,0,1,5.74778841012722,0,2.19816012943085,0,-0.039585252167905,0,0,0,0,0,7,0,0,0
3.5,20.6757986405491,0,-993.589126561756,6.1792892579189,0,-0.265942005118437,0,-0.0182103433623863,0,0,-23.4755183978041,0,1,5.77377168134363,0,2.21763420221475,0,-0.0182103433623863,0,0,0,0,0,7,0,0,0
3.55,20.965154186731,0,-993.477858493379,6.20958961564396,0,-0.26555838638279,0,0.0029127184066401,0,0,-23.4973329095565,0,1,5.80056179126808,0,2.23226507318742,0,0.0029127184066401,0,0,0,0,0,7,0,0,0
3.6,21.2558636461742,0,-993.365983959947,6.23864742315987,0,-0.263510751540551,0,0.0234700755778234,0,0,-23.459372009918,0,1,5.82788029270858,0,2.24186772146254,0,0.0234700755778234,0,0,0,0,0,7,0,0,0
3.65,21.54794609213,0,-993.253757535347,6.26613880737227,0,-0.259922216474757,0,0.043168641407372,0,0,-23.3636818879109,0,1,5.85543049314753,0,2.24632785937228,0,0.043168641407372,0,0,0,0,0,7,0,0,0
3.7,21.8414053626996,0,-993.141437633102,6.29176199919419,0,-0.254944045920842,0,0.0617426207829124,0,0,-23.2131106932514,0,1,5.88290024749022,0,2.24560686655834,0,0.0617426207829124,0,0,0,0,0,7,0,0,0
3.75,22.1362293843093,0,-993.029282637267,6.31524184377469,0,-0.24874860252853,0,0.0789588349893719,0,0,-23.0112224127904,0,1,5.90996600899343,0,2.23974489287618,0,0.0789588349893719,0,0,0,0,0,7,0,0,0
3.8,22.4323897279263,0,-992.917546929153,6.33633389757777,0,-0.241521855058907,0,0.0946206445203143,0,0,-22.7621974620113,0,1,5.93629806731398,0,2.2288618898596,0,0.0946206445203143,0,0,0,0,0,7,0,0,0
3.85,22.7298414533814,0,-992.806476917468,6.35482795985699,0,-0.233455890946291,0,0.108570354688575,0,0,-22.4707241955886,0,1,5.96156679715671,0,2.21315642814428,0,0.108570354688575,0,0,0,0,0,7,0,0,0
3.9,23.0285232859231,0,-992.696307183797,6.37055091380868,0,-0.224741856884504,0,0.120690085904659,0,0,-22.1418857325601,0,1,5.98544964718176,0,2.1929022706715,0,0.120690085904659,0,0,0,0,0,7,0,0,0
3.95,23.3283581537071,0,-992.58725685393,6.38336878931316,0,-0.21556369623723,0,0.130901185213511,0,0,-21.7810464063452,0,1,6.00763852716613,0,2.16844279021188,0,0.130901185213511,0,0,0,0,0,7,0,0,0
4,23.6292540966459,0,-992.479526298181,6.39318800029564,0,-0.206092970486987,0,0.13916233962624,0,0,-21.3937418067421,0,1,6.02784720972223,0,2.14018343509435,0,0.13916233962624,0,0,0,0,0,7,0,0,0
4.05,23.9311055375241,0,-992.373294251006,6.39995575095644,0,-0.196484952814873,0,0.145466618025742,0,0,-20.985575821405,0,1,6.04581835518681,0,2.10858254924233,0,0.145466618025742,0,0,0,0,0,7,0,0,0
4.1,24.2337948872296,0,-992.26871542284,6.40365964265358,0,-0.186876075801301,0,0.149837712262539,0,0,-20.562127366171,0,1,6.06132979439004,0,2.0741409330845,0,0.149837712262539,0,0,0,0,0,7,0,0,0
4.15,24.5371944389719,0,-992.165918656279,6.4043265443106,0,-0.177382712688548,0,0.152325667445694,0,0,-20.1288686847568,0,1,6.07419975965431,0,2.03739058423701,0,0.152325667445694,0,0,0,0,0,7,0,0,0
4.2,24.8411684927426,0,-992.065005656153,6.40202081229721,0,-0.168101181852108,0,0.153002387030415,0,0,-19.6910962684723,0,1,6.08429083214524,0,1.99888307769615,0,0.153002387030415,0,0,0,0,0,7,0,0,0
4.25,25.145575641914,0,-991.966050300176,6.39684196034828,0,-0.15910879395539,0,0.151957173139571,0,0,-19.2538746600332,0,1,6.09151246428674,0,1.9591780346425,0,0.151957173139571,0,0,0,0,0,7,0,0,0
4.3,25.4502711491537,0,-991.869098515278,6.38892188672327,0,-0.150465714661889,0,0.149292521420878,0,0,-18.8219927152401,0,1,6.09582202957157,0,1.91883209003038,0,0.149292521420878,0,0,0,0,0,7,0,0,0
4.35,25.7551093386834,0,-991.774168685679,6.37842176557132,0,-0.142217393681039,0,0.145120338406505,0,0,-18.3999313398435,0,1,6.0972244398179,0,1.87838870766056,0,0.145120338406505,0,0,0,0,0,7,0,0,0
4.4,26.0599459358469,0,-991.681252543175,6.365528703804,0,-0.134397311560542,0,0.139558693755814,0,0,-17.9918413169995,0,1,6.09577044467665,0,1.83836911476287,0,0.139558693755814,0,0,0,0,0,7,0,0,0
4.45,26.3646402922012,0,-991.590316478618,6.35045225523442,0,-0.127029815178913,0,0.132729165343349,0,0,-17.6015295975484,0,1,6.09155378537246,0,1.79926454415986,0,0.132729165343349,0,0,0,0,0,7,0,0,0
4.5,26.6690574439664,0,-991.501303206264,6.33342087178328,0,-0.120132846247656,0,0.124754786268161,0,0,-17.2324523310372,0,1,6.08470741223097,0,1.76152988831559,0,0.124754786268161,0,0,0,0,0,7,0,0,0
4.55,26.9730699626802,0,-991.414133709411,6.31467835846372,0,-0.113720408774665,0,0.115758562524425,0,0,-16.8877129494506,0,1,6.07539899380457,0,1.72557879226083,0,0.115758562524425,0,0,0,0,0,7,0,0,0
4.6,27.2765595683851,0,-991.328709396128,6.29448038568874,0,-0.10780466611911,0,0.10586249988628,0,0,-16.5700637508883,0,1,6.06382594647475,0,1.69178014609373,0,0.10586249988628,0,0,0,0,0,7,0,0,0
4.65,27.5794184868518,0,-991.244914397188,6.27309110000817,0,-0.102397601544924,0,0.0951870588241431,0,0,-16.281909637161,0,1,6.05021020057398,0,1.6604558851937,0,0.0951870588241431,0,0,0,0,0,7,0,0,0
4.7,27.881550542603,0,-991.162617943953,6.25077986325946,0,-0.0975122147447991,0,0.0838509462412113,0,0,-16.0253129083619,0,1,6.03479289617315,0,1.63187996839609,0,0.0838509462412113,0,0,0,0,0,7,0,0,0
4.75,28.1828719884505,0,-991.081676771071,6.22781814068309,0,-0.0931632585839047,0,0.071971151027545,0,0,-15.8019982830891,0,1,6.01782917255613,0,1.6062783806376,0,0.071971151027545,0,0,0,0,0,7,0,0,0
4.8,28.4833120796688,0,-991.001937496843,6.20447655100765,0,-0.0893675443960161,0,0.0596631350076399,0,0,-15.6133575741497,0,1,5.99958318349191,0,1.58382999540866,0,0.0596631350076399,0,0,0,0,0,7,0,0,0
4.85,28.7828134067281,0,-990.923238942443,6.18102208589226,0,-0.0861438606296314,0,0.0470410998356835,0,0,-15.4604536908576,0,1,5.98032343851202,0,1.56466813152049,0,0.0470410998356835,0,0,0,0,0,7,0,0,0
4.9,29.0813320047651,0,-990.84541435926,6.15771550234292,0,-0.0835125592917482,0,0.034218261928628,0,0,-15.3440238505245,0,1,5.96031854057113,0,1.54888264574107,0,0.034218261928628,0,0,0,0,0,7,0,0,0
